# Z_position(Angstrom) Current(Ampere) Normalized_Current Blockage(%) # Pore_type: cylindrical - Using van der Waals radii
1.500000000000000000e+02 1.454238425286969161e+01 9.817394648148455305e-01 1.826053518515446950e+00
1.400000000000000000e+02 1.439192056921976359e+01 9.715818363481515396e-01 2.841816365184846038e+00
1.300000000000000000e+02 1.436856999725800321e+01 9.700054663649189113e-01 2.999453363508108872e+00
1.200000000000000000e+02 1.429963149887785434e+01 9.653515084355985820e-01 3.464849156440141797e+00
1.100000000000000000e+02 1.421285802240736729e+01 9.594935318570021465e-01 4.050646814299785348e+00
1.000000000000000000e+02 1.412477737539810008e+01 9.535473097140713117e-01 4.645269028592869276e+00
9.000000000000000000e+01 1.403005441330471825e+01 9.471526725971980420e-01 5.284732740280196239e+00
8.000000000000000000e+01 1.392859911110027582e+01 9.403035430214090606e-01 5.969645697859093936e+00
7.000000000000000000e+01 1.382313996819770807e+01 9.331841188119593955e-01 6.681588118804060450e+00
6.000000000000000000e+01 1.371871340252057436e+01 9.261344026912970984e-01 7.386559730870290608e+00
5.000000000000000000e+01 1.362128325543485019e+01 9.195570066609387583e-01 8.044299333906124616e+00
4.000000000000000000e+01 1.353637524449437990e+01 9.138249654928791710e-01 8.617503450712082014e+00
3.000000000000000000e+01 1.346814895584620331e+01 9.092190880150821108e-01 9.078091198491788916e+00
2.000000000000000000e+01 1.341892093410540099e+01 9.058957614630297472e-01 9.410423853697025720e+00
1.000000000000000000e+01 1.338969236345722535e+01 9.039225746178409793e-01 9.607742538215902073e+00
0.000000000000000000e+00 1.338054543322176926e+01 9.033050759850234090e-01 9.669492401497659984e+00
-1.000000000000000000e+01 1.339143440695299248e+01 9.040401779502437174e-01 9.595982204975628704e+00
-2.000000000000000000e+01 1.342261568691816365e+01 9.061451899326639081e-01 9.385481006733609632e+00
-3.000000000000000000e+01 1.347397795554850930e+01 9.096125970125504834e-01 9.038740298744951218e+00
-4.000000000000000000e+01 1.354437516508812323e+01 9.143650308374400293e-01 8.563496916255996183e+00
-5.000000000000000000e+01 1.363122275661782723e+01 9.202280108375734402e-01 7.977198916242656423e+00
-6.000000000000000000e+01 1.372975250630135946e+01 9.268796397617344862e-01 7.312036023826551379e+00
-7.000000000000000000e+01 1.383431232116370069e+01 9.339383513800744163e-01 6.606164861992558812e+00
-8.000000000000000000e+01 1.393911822361128827e+01 9.410136760853768934e-01 5.898632391462310665e+00
-9.000000000000000000e+01 1.403948554107464730e+01 9.477893570753724850e-01 5.221064292462751055e+00
-1.000000000000000000e+02 1.413306604832293800e+01 9.541068683930169492e-01 4.589313160698305083e+00
-1.100000000000000000e+02 1.422033130946587676e+01 9.599980447834695063e-01 4.000195521653049369e+00
-1.200000000000000000e+02 1.430369318290399860e+01 9.656257080051283692e-01 3.437429199487163078e+00
-1.300000000000000000e+02 1.438642067968250515e+01 9.712105451955481694e-01 2.878945480445183058e+00
-1.400000000000000000e+02 1.447093699588043947e+01 9.769161435066304744e-01 2.308385649336952561e+00
-1.500000000000000000e+02 1.455417354733080160e+01 9.825353463865011960e-01 1.746465361349880396e+00
